(32, 69, 196, 697, 427, 55, 33, 46)
(39, 76, 198, 726, 411, 65, 36, 39)
(43, 82, 223, 796, 457, 71, 42, 40)
(47, 85, 216, 757, 383, 71, 42, 39)
(48, 76, 208, 736, 394, 75, 46, 41)
(46, 73, 203, 741, 404, 72, 47, 41)
(58, 98, 260, 734, 456, 69, 56, 50)
(57, 97, 252, 674, 399, 62, 52, 48)
(57, 101, 265, 671, 410, 66, 52, 48)
(57, 104, 259, 700, 393, 72, 52, 48)
(60, 109, 264, 686, 374, 81, 54, 50)
(44, 78, 208, 661, 290, 81, 41, 36)
(42, 75, 198, 630, 305, 84, 39, 35)
(42, 75, 179, 671, 311, 86, 40, 36)
(47, 79, 189, 651, 323, 78, 39, 39)
(49, 83, 191, 688, 334, 69, 35, 38)
(50, 93, 203, 716, 345, 60, 35, 39)
(53, 94, 191, 688, 316, 55, 35, 38)
(52, 94, 204, 683, 287, 44, 33, 37)
(48, 95, 197, 647, 263, 43, 30, 34)
(43, 90, 183, 566, 219, 40, 29, 32)
(39, 79, 149, 492, 172, 38, 28, 30)
(37, 77, 144, 513, 157, 35, 26, 31)
(33, 66, 107, 398, 129, 31, 27, 30)
(35, 56, 87, 347, 111, 33, 26, 28)
(36, 50, 85, 303, 102, 37, 26, 28)
(48, 50, 86, 288, 99, 41, 28, 38)
(70, 45, 80, 214, 90, 50, 33, 38)
(75, 47, 76, 149, 73, 57, 37, 41)
(83, 43, 65, 123, 67, 62, 44, 47)
(96, 44, 55, 116, 63, 73, 65, 57)
(115, 49, 52, 106, 57, 82, 70, 57)
(114, 53, 53, 92, 74, 80, 80, 67)
(118, 57, 82, 85, 111, 78, 78, 68)
(115, 64, 95, 88, 154, 94, 83, 65)
(109, 63, 97, 81, 183, 86, 70, 70)
(100, 59, 96, 79, 219, 92, 68, 70)
(102, 75, 131, 81, 267, 129, 69, 64)
(95, 75, 130, 89, 310, 147, 71, 61)
(91, 71, 130, 98, 376, 148, 64, 61)
(102, 75, 137, 108, 461, 190, 79, 54)
(89, 77, 144, 159, 570, 208, 79, 54)
(76, 74, 162, 235, 643, 202, 72, 52)
(84, 90, 217, 403, 664, 230, 86, 59)
(85, 102, 249, 548, 724, 245, 94, 61)
(70, 109, 250, 633, 716, 220, 80, 55)
(66, 111, 257, 786, 682, 206, 81, 53)
(70, 123, 266, 832, 628, 206, 85, 58)
(66, 126, 260, 882, 619, 161, 74, 55)
(66, 126, 250, 855, 676, 150, 72, 55)
(60, 121, 256, 854, 676, 147, 74, 54)
(59, 119, 249, 785, 638, 136, 71, 52)
(53, 104, 237, 840, 620, 140, 68, 50)
(52, 95, 208, 871, 633, 145, 76, 50)
(58, 101, 235, 1013, 553, 134, 95, 57)
(59, 101, 239, 1053, 545, 144, 95, 57)
(66, 113, 283, 1090, 584, 152, 99, 62)
(64, 116, 277, 1106, 602, 135, 96, 59)
(66, 119, 311, 1151, 655, 136, 88, 56)
(77, 150, 335, 1223, 622, 128, 67, 61)
(85, 161, 340, 1205, 679, 135, 76, 70)
(85, 160, 334, 1242, 671, 139, 76, 70)
(92, 174, 361, 1226, 676, 146, 86, 74)
(92, 177, 360, 1227, 641, 163, 91, 76)
(83, 153, 342, 1055, 648, 178, 92, 72)
(78, 145, 340, 1072, 612, 167, 83, 64)
(82, 153, 337, 1016, 615, 160, 87, 66)
(81, 150, 325, 1064, 638, 157, 84, 67)
(78, 146, 291, 955, 597, 135, 81, 68)
(73, 131, 247, 899, 533, 111, 72, 61)
(69, 128, 233, 836, 464, 110, 73, 62)
(61, 118, 208, 845, 418, 101, 65, 58)
(55, 101, 161, 686, 342, 91, 56, 51)
(53, 94, 162, 617, 293, 81, 48, 44)
(53, 95, 157, 615, 273, 71, 42, 42)
(58, 92, 152, 576, 244, 56, 38, 41)
(55, 80, 123, 425, 184, 49, 30, 34)
(55, 72, 124, 400, 134, 45, 27, 30)
(52, 65, 109, 368, 131, 49, 32, 30)
(53, 62, 107, 335, 132, 49, 32, 30)
(49, 60, 107, 326, 127, 47, 32, 28)
(64, 60, 113, 275, 119, 51, 32, 29)
(64, 54, 94, 237, 109, 50, 30, 27)
(66, 56, 109, 201, 89, 50, 25, 28)
(63, 54, 109, 170, 81, 50, 27, 27)
(59, 53, 102, 120, 61, 57, 59, 28)
(39, 48, 98, 108, 59, 73, 66, 33)
(51, 52, 108, 100, 55, 94, 96, 69)
(51, 44, 83, 87, 51, 113, 107, 68)
(67, 50, 80, 85, 46, 119, 114, 71)
(69, 50, 87, 85, 46, 125, 107, 73)
(84, 53, 88, 86, 41, 127, 106, 79)
(86, 50, 75, 79, 37, 116, 79, 60)
(89, 50, 72, 81, 53, 106, 79, 65)
(84, 45, 75, 74, 97, 107, 83, 77)
(96, 54, 111, 82, 108, 109, 83, 80)
(118, 61, 118, 82, 115, 98, 86, 120)
(122, 60, 120, 85, 128, 103, 103, 127)
(139, 62, 119, 76, 142, 108, 97, 137)
(159, 64, 127, 88, 127, 107, 85, 140)
(220, 66, 97, 86, 129, 106, 94, 153)
(243, 85, 158, 112, 137, 119, 91, 139)
(263, 96, 177, 115, 137, 138, 78, 153)
(265, 95, 179, 114, 122, 144, 116, 151)
(260, 99, 178, 116, 116, 150, 123, 147)
(227, 96, 175, 108, 107, 175, 127, 136)
(275, 78, 123, 92, 91, 195, 133, 144)
(293, 89, 104, 100, 85, 200, 140, 173)
(314, 94, 102, 107, 80, 236, 190, 184)
(343, 107, 100, 113, 92, 245, 194, 275)
(438, 108, 108, 121, 123, 237, 267, 399)
(535, 123, 105, 119, 151, 235, 392, 469)
(608, 136, 107, 117, 200, 236, 444, 573)
(618, 155, 109, 119, 213, 227, 489, 694)
(684, 177, 107, 109, 222, 229, 534, 779)
(696, 224, 107, 107, 231, 248, 558, 886)
(688, 234, 108, 102, 226, 244, 513, 896)
(657, 246, 95, 92, 209, 249, 481, 907)
(691, 240, 87, 85, 201, 221, 428, 835)
(649, 233, 78, 88, 192, 217, 410, 789)
(582, 187, 66, 79, 185, 185, 336, 620)
(473, 166, 52, 77, 176, 170, 292, 553)
(419, 128, 85, 120, 160, 138, 268, 410)
(321, 121, 134, 261, 162, 127, 238, 370)
(237, 83, 140, 297, 155, 106, 150, 209)
(198, 91, 145, 356, 133, 91, 123, 141)
(176, 84, 165, 391, 129, 80, 87, 119)
(123, 81, 163, 411, 112, 80, 84, 96)
(114, 96, 160, 383, 129, 79, 65, 74)
(88, 101, 194, 414, 148, 73, 63, 66)
(79, 100, 204, 413, 152, 74, 58, 46)
(70, 100, 196, 405, 156, 70, 52, 41)
(65, 96, 192, 411, 175, 53, 36, 30)
(55, 78, 193, 416, 215, 52, 33, 28)
(46, 75, 162, 378, 277, 55, 34, 28)
(45, 75, 182, 444, 338, 56, 33, 29)
(50, 85, 195, 514, 397, 63, 38, 33)
(53, 106, 270, 564, 443, 71, 41, 37)
(48, 109, 267, 596, 490, 73, 45, 38)
(49, 109, 272, 721, 512, 74, 45, 39)
(52, 110, 254, 752, 568, 81, 50, 41)
(52, 109, 267, 733, 598, 81, 48, 41)
(48, 85, 200, 840, 641, 84, 56, 39)
(49, 79, 185, 851, 681, 97, 56, 40)
(49, 79, 185, 799, 663, 103, 58, 40)
(48, 79, 203, 789, 643, 109, 65, 39)
(54, 80, 174, 919, 642, 133, 87, 48)
(57, 93, 183, 923, 703, 144, 93, 53)
(63, 104, 206, 954, 652, 150, 100, 61)
(67, 105, 203, 1106, 698, 153, 102, 64)
(71, 117, 208, 1181, 731, 175, 107, 68)
(69, 130, 252, 1158, 754, 165, 103, 66)
(67, 124, 283, 1119, 672, 162, 94, 66)
(60, 118, 301, 1113, 649, 149, 94, 60)
(68, 129, 319, 1020, 631, 152, 105, 67)
(65, 125, 366, 957, 578, 125, 102, 69)
(72, 124, 368, 938, 517, 124, 101, 77)
(78, 137, 365, 897, 503, 126, 102, 80)
(78, 139, 353, 975, 555, 133, 101, 80)
(72, 133, 339, 907, 510, 123, 101, 74)
(70, 130, 294, 862, 466, 116, 97, 72)
(59, 117, 271, 907, 456, 118, 86, 59)
(51, 108, 258, 930, 445, 103, 88, 54)
(51, 108, 258, 807, 370, 92, 87, 52)
(49, 105, 263, 822, 413, 96, 77, 50)
(46, 95, 238, 839, 417, 93, 70, 44)
(45, 95, 231, 763, 425, 83, 71, 44)
(52, 99, 207, 786, 395, 82, 62, 45)
(50, 91, 184, 804, 388, 80, 54, 44)
(52, 87, 174, 748, 311, 69, 47, 44)
(55, 90, 178, 735, 312, 76, 49, 44)
(55, 89, 158, 686, 264, 65, 42, 42)
(47, 74, 141, 557, 248, 57, 41, 36)
(50, 79, 130, 492, 255, 62, 40, 35)
(45, 75, 108, 487, 252, 60, 36, 32)
(41, 69, 94, 403, 216, 50, 33, 29)
(44, 77, 133, 303, 173, 48, 30, 27)
(49, 82, 141, 283, 147, 49, 29, 29)
(44, 71, 136, 237, 102, 41, 34, 26)
(47, 71, 139, 210, 79, 43, 39, 28)
(46, 72, 137, 146, 71, 45, 51, 30)
(61, 56, 90, 111, 63, 59, 61, 35)
(81, 50, 72, 102, 66, 65, 90, 46)
(97, 50, 62, 76, 62, 96, 104, 51)
(107, 52, 57, 64, 58, 104, 117, 54)
(112, 50, 54, 60, 58, 114, 123, 65)
(111, 53, 51, 59, 59, 119, 130, 68)
(121, 54, 48, 48, 56, 128, 154, 68)
(119, 56, 55, 52, 58, 129, 164, 68)
(137, 55, 52, 52, 55, 128, 163, 83)
(166, 62, 61, 61, 66, 134, 166, 81)
(174, 59, 60, 53, 61, 130, 196, 91)
(164, 52, 57, 56, 65, 131, 173, 95)
(177, 60, 54, 54, 63, 115, 183, 101)
(218, 72, 57, 53, 61, 114, 197, 120)
(249, 76, 49, 41, 49, 108, 213, 120)
(292, 81, 54, 47, 52, 103, 183, 114)
(328, 88, 57, 47, 52, 108, 201, 119)
(361, 88, 58, 50, 61, 112, 200, 145)
(399, 85, 59, 62, 85, 115, 202, 208)
(454, 94, 63, 66, 99, 120, 192, 263)
(451, 88, 58, 69, 117, 124, 194, 314)
(432, 93, 58, 68, 122, 110, 172, 324)
(440, 101, 60, 70, 118, 104, 154, 322)
(394, 95, 54, 64, 114, 100, 129, 280)
(315, 82, 48, 65, 123, 86, 119, 236)
(295, 83, 52, 65, 107, 80, 115, 166)
(294, 78, 86, 81, 104, 79, 114, 141)
(253, 69, 113, 84, 104, 81, 103, 115)
(228, 72, 124, 114, 93, 75, 90, 101)
(198, 70, 132, 123, 66, 76, 76, 78)
(263, 69, 132, 129, 62, 77, 73, 80)
(255, 63, 129, 128, 56, 76, 66, 68)
(258, 69, 151, 175, 58, 74, 62, 66)
(259, 74, 170, 163, 54, 75, 62, 65)
(256, 75, 178, 194, 54, 74, 51, 62)
(161, 92, 195, 210, 56, 75, 44, 38)
(152, 93, 197, 228, 55, 69, 39, 37)
(93, 82, 186, 233, 57, 78, 37, 34)
(83, 82, 178, 247, 59, 77, 34, 33)
(76, 83, 189, 232, 56, 71, 33, 34)
(67, 80, 211, 237, 63, 67, 31, 33)
(53, 79, 219, 271, 78, 70, 30, 31)
(58, 87, 211, 275, 90, 50, 28, 32)
(57, 90, 206, 366, 126, 48, 30, 31)
(58, 95, 206, 428, 142, 52, 31, 30)
(53, 90, 210, 471, 180, 57, 31, 30)
(53, 88, 198, 504, 208, 52, 30, 30)
(47, 82, 199, 588, 342, 61, 28, 27)
(43, 84, 204, 621, 385, 63, 28, 27)
(45, 86, 192, 608, 421, 72, 40, 34)
(43, 75, 150, 769, 532, 82, 42, 33)
(51, 90, 169, 823, 568, 107, 57, 39)
(52, 96, 182, 839, 560, 110, 61, 43)
(54, 95, 190, 881, 593, 118, 65, 47)
(54, 92, 201, 937, 626, 121, 85, 46)
(70, 120, 248, 988, 563, 127, 94, 60)
(69, 119, 261, 992, 568, 114, 87, 57)
(74, 127, 260, 1009, 622, 119, 93, 62)
(75, 128, 258, 942, 588, 121, 98, 63)
(81, 135, 263, 945, 614, 140, 102, 68)
(74, 125, 232, 848, 629, 138, 99, 62)
(73, 121, 225, 966, 644, 144, 108, 65)
(69, 110, 223, 962, 628, 139, 102, 59)
(65, 108, 218, 1025, 689, 143, 102, 56)
(56, 99, 200, 1024, 728, 141, 80, 49)
(59, 100, 201, 984, 756, 133, 82, 50)
(64, 126, 210, 952, 742, 132, 79, 54)
(65, 126, 199, 1062, 731, 130, 80, 57)
(67, 126, 216, 1029, 711, 122, 83, 60)
(72, 130, 223, 1044, 681, 103, 87, 64)
(73, 136, 247, 1055, 648, 115, 86, 65)
(70, 129, 235, 1022, 648, 107, 88, 62)
(72, 135, 256, 917, 604, 109, 99, 64)
(69, 133, 235, 924, 535, 114, 96, 62)
(64, 127, 230, 881, 434, 106, 94, 58)
(58, 116, 206, 864, 404, 93, 90, 56)
(53, 96, 191, 755, 352, 95, 82, 52)
(51, 89, 170, 682, 344, 100, 69, 49)
(52, 85, 169, 691, 374, 89, 57, 49)
(56, 88, 172, 700, 373, 89, 52, 51)
(60, 89, 169, 659, 388, 92, 57, 55)
(57, 82, 161, 653, 436, 86, 55, 52)
(53, 78, 149, 692, 410, 73, 49, 49)
(52, 82, 147, 644, 378, 71, 49, 46)
(55, 88, 147, 577, 382, 70, 50, 47)
(45, 74, 123, 577, 324, 55, 39, 36)
(47, 78, 119, 557, 227, 47, 39, 36)
(44, 77, 114, 455, 210, 52, 39, 36)
(46, 77, 111, 413, 203, 50, 38, 35)
(37, 59, 93, 410, 148, 41, 31, 31)
(36, 58, 79, 348, 138, 43, 30, 31)
(35, 54, 68, 307, 125, 43, 26, 30)
(34, 49, 60, 262, 103, 40, 26, 30)
(30, 38, 49, 193, 87, 38, 25, 28)
(29, 36, 43, 129, 72, 43, 22, 25)
(31, 36, 44, 100, 63, 44, 23, 25)
(30, 44, 43, 83, 53, 45, 23, 24)
(33, 44, 44, 77, 57, 48, 32, 24)
(35, 46, 41, 66, 54, 48, 45, 23)
(42, 44, 43, 51, 48, 51, 58, 30)
(50, 43, 40, 49, 51, 52, 60, 34)
(84, 38, 40, 40, 50, 66, 64, 57)
(120, 41, 42, 32, 37, 73, 74, 61)
(161, 56, 46, 33, 39, 89, 73, 68)
(171, 75, 47, 46, 37, 85, 81, 86)
(181, 83, 48, 76, 36, 115, 88, 87)
(195, 88, 103, 84, 44, 111, 88, 102)
(186, 90, 115, 83, 45, 111, 85, 105)
(196, 86, 115, 84, 48, 108, 94, 120)
(216, 73, 116, 80, 50, 116, 92, 117)
(245, 71, 123, 60, 47, 90, 95, 128)
(283, 71, 111, 108, 43, 99, 101, 136)
(303, 70, 108, 128, 46, 100, 98, 143)
(295, 66, 111, 134, 56, 111, 99, 156)
(334, 75, 115, 145, 59, 120, 134, 202)
(387, 78, 112, 144, 69, 127, 137, 205)
(408, 95, 177, 133, 82, 135, 143, 232)
(431, 103, 193, 119, 85, 136, 146, 256)
(464, 106, 203, 118, 93, 128, 151, 277)
(473, 104, 203, 109, 102, 117, 130, 317)
(481, 103, 206, 114, 154, 121, 140, 327)
(483, 88, 145, 143, 157, 120, 147, 356)
(471, 98, 123, 145, 159, 140, 163, 379)
(542, 97, 106, 143, 170, 140, 159, 385)
(516, 98, 105, 143, 169, 143, 173, 381)
(472, 99, 101, 161, 170, 195, 169, 385)
(437, 110, 149, 174, 397, 225, 177, 336)
(417, 105, 167, 208, 525, 238, 162, 334)
(258, 111, 189, 238, 541, 261, 161, 328)
(242, 114, 193, 253, 651, 282, 154, 269)
(212, 120, 214, 290, 679, 272, 147, 245)
(183, 119, 209, 325, 647, 282, 130, 240)
(165, 123, 225, 321, 583, 270, 132, 171)
(153, 131, 289, 375, 621, 256, 124, 101)
(124, 131, 300, 418, 569, 234, 95, 86)
(89, 150, 394, 512, 583, 203, 95, 75)
(69, 146, 384, 538, 553, 147, 79, 67)
(62, 137, 393, 565, 553, 132, 75, 58)
(50, 125, 360, 544, 505, 121, 77, 46)
(47, 124, 377, 563, 445, 113, 76, 33)
(47, 95, 318, 474, 398, 111, 73, 34)
(40, 93, 335, 449, 335, 107, 70, 34)
(49, 101, 349, 418, 298, 117, 67, 39)
(53, 100, 350, 413, 306, 132, 67, 40)
(53, 98, 344, 362, 294, 132, 66, 41)
(52, 99, 352, 405, 265, 138, 55, 37)
(49, 92, 343, 391, 295, 144, 63, 37)
(42, 85, 310, 387, 286, 136, 57, 36)
(43, 94, 314, 377, 318, 114, 55, 41)
(42, 96, 299, 407, 372, 116, 57, 40)
(46, 98, 254, 350, 460, 114, 62, 46)
(48, 104, 264, 360, 483, 121, 59, 47)
(49, 104, 262, 361, 490, 126, 56, 44)
(47, 100, 266, 394, 471, 145, 55, 44)
(60, 109, 301, 372, 467, 145, 55, 57)
(60, 123, 348, 412, 451, 154, 73, 56)
(62, 131, 341, 405, 438, 160, 75, 58)
(61, 143, 377, 410, 431, 165, 80, 60)
(63, 165, 414, 417, 428, 156, 82, 59)
(58, 167, 406, 460, 401, 162, 83, 51)
(55, 162, 398, 447, 343, 153, 81, 51)
(54, 166, 398, 463, 320, 137, 78, 55)
(55, 163, 416, 471, 341, 127, 73, 57)
(52, 140, 414, 448, 327, 138, 69, 54)
(48, 136, 420, 453, 370, 125, 65, 52)
(54, 131, 412, 479, 378, 121, 45, 53)
(62, 163, 477, 474, 364, 116, 44, 51)
(61, 158, 443, 488, 342, 105, 45, 48)
(64, 165, 412, 483, 353, 72, 44, 50)
(63, 164, 419, 443, 340, 87, 42, 49)
(60, 168, 430, 453, 343, 99, 59, 46)
(58, 176, 534, 540, 382, 117, 66, 49)
(60, 178, 550, 537, 385, 123, 69, 48)
(56, 179, 565, 577, 400, 129, 69, 45)
(55, 180, 582, 595, 370, 126, 71, 45)
(60, 184, 580, 560, 378, 122, 73, 46)
(51, 134, 453, 474, 347, 117, 69, 37)
(48, 126, 435, 538, 360, 124, 69, 34)
(48, 122, 452, 566, 328, 122, 70, 37)
(47, 120, 443, 626, 396, 135, 92, 39)
(40, 108, 438, 685, 362, 130, 79, 37)
(47, 115, 430, 677, 374, 122, 84, 43)
(48, 116, 440, 679, 393, 112, 84, 45)
(49, 113, 395, 627, 405, 120, 86, 47)
(49, 120, 388, 653, 364, 110, 70, 43)
(47, 117, 391, 658, 366, 114, 77, 45)
(39, 118, 399, 701, 410, 108, 68, 41)
(41, 134, 479, 677, 409, 110, 64, 39)
(47, 149, 501, 698, 393, 110, 60, 35)
(47, 145, 495, 620, 379, 106, 52, 38)
(48, 148, 483, 537, 378, 105, 70, 40)
(48, 145, 481, 537, 310, 107, 72, 38)
(47, 129, 381, 501, 346, 108, 72, 40)
(40, 112, 381, 470, 367, 94, 71, 40)
(44, 106, 357, 449, 369, 102, 79, 42)
(45, 103, 363, 513, 372, 101, 55, 37)
(47, 102, 330, 492, 383, 106, 54, 39)
(47, 103, 324, 515, 376, 111, 66, 37)
(52, 113, 347, 525, 373, 119, 68, 41)
(50, 114, 349, 528, 372, 108, 59, 40)
(49, 112, 328, 472, 375, 100, 61, 40)
(46, 112, 323, 412, 383, 103, 58, 38)
(47, 111, 320, 347, 325, 91, 64, 37)
(46, 100, 249, 304, 309, 96, 69, 35)
(44, 99, 243, 241, 287, 94, 68, 32)
(42, 109, 259, 245, 250, 97, 68, 29)
(42, 108, 264, 261, 226, 89, 70, 33)
(43, 120, 262, 300, 227, 85, 53, 33)
(40, 131, 270, 332, 225, 73, 59, 34)
(41, 135, 248, 336, 231, 70, 60, 33)
(42, 137, 251, 327, 259, 77, 61, 34)
(42, 148, 261, 301, 239, 72, 58, 31)
(41, 145, 285, 252, 226, 76, 59, 33)
(40, 166, 307, 241, 212, 74, 44, 30)
(43, 173, 326, 252, 215, 71, 41, 32)
(43, 183, 319, 230, 189, 66, 48, 31)
(42, 178, 304, 249, 195, 67, 49, 30)
(41, 177, 290, 253, 233, 62, 46, 28)
(37, 150, 273, 210, 229, 59, 45, 27)
(36, 142, 258, 180, 205, 60, 47, 32)
(43, 121, 259, 190, 195, 49, 52, 36)
(43, 128, 261, 173, 191, 43, 54, 35)
(47, 127, 251, 174, 190, 44, 54, 40)
(48, 151, 246, 182, 196, 40, 54, 41)
(47, 145, 246, 183, 212, 42, 52, 35)
(41, 150, 238, 155, 216, 43, 36, 34)
(41, 146, 274, 148, 206, 46, 30, 38)
(35, 141, 268, 158, 225, 61, 38, 33)
(33, 108, 243, 172, 226, 64, 37, 33)
(33, 116, 236, 160, 218, 64, 57, 34)
(33, 102, 207, 163, 228, 63, 58, 34)
(39, 120, 144, 158, 240, 60, 57, 32)
(49, 131, 166, 163, 187, 44, 54, 39)
(48, 132, 180, 148, 176, 54, 57, 37)
(45, 121, 167, 150, 173, 50, 39, 36)
(47, 124, 171, 156, 155, 59, 40, 34)
(52, 93, 159, 207, 180, 63, 60, 47)
(46, 80, 138, 193, 157, 63, 59, 44)
(47, 85, 110, 184, 162, 55, 59, 45)
(49, 88, 134, 188, 192, 66, 63, 45)
(48, 82, 129, 183, 191, 59, 63, 44)
(36, 79, 125, 117, 160, 58, 45, 31)
(35, 71, 123, 100, 204, 57, 45, 30)
(35, 54, 111, 105, 239, 53, 40, 32)
(34, 50, 82, 107, 233, 40, 30, 32)
(35, 55, 81, 105, 240, 39, 28, 33)
(41, 57, 87, 110, 232, 36, 27, 36)
(44, 63, 83, 110, 193, 36, 28, 35)
(44, 65, 77, 98, 144, 35, 28, 34)
(47, 80, 106, 94, 155, 37, 28, 37)
(46, 81, 110, 90, 191, 39, 27, 37)
(39, 77, 102, 83, 200, 48, 29, 40)
(35, 77, 109, 118, 222, 55, 28, 38)
(33, 76, 112, 149, 241, 62, 27, 38)
(38, 64, 89, 165, 220, 73, 29, 36)
(36, 62, 87, 194, 197, 77, 32, 36)
(46, 73, 98, 221, 201, 75, 31, 35)
(49, 73, 96, 210, 189, 74, 31, 36)
(53, 79, 102, 211, 187, 89, 33, 36)
(52, 78, 113, 245, 191, 93, 34, 36)
(55, 81, 122, 322, 215, 92, 37, 37)
(55, 85, 125, 403, 221, 119, 56, 39)
(54, 88, 128, 423, 218, 121, 56, 39)
(59, 92, 138, 435, 230, 128, 61, 44)
(59, 91, 130, 431, 245, 124, 63, 44)
(66, 100, 133, 422, 274, 131, 65, 50)
(64, 94, 126, 383, 304, 109, 96, 54)
(68, 91, 121, 387, 312, 111, 105, 59)
(74, 94, 114, 437, 319, 110, 104, 137)
(74, 92, 110, 434, 306, 113, 106, 143)
(73, 77, 90, 385, 250, 110, 129, 158)
(76, 76, 87, 335, 193, 123, 101, 158)
(77, 77, 87, 307, 167, 120, 98, 158)
(67, 63, 66, 188, 102, 101, 128, 102)
(84, 65, 77, 138, 76, 99, 126, 97)
(194, 73, 84, 119, 100, 96, 107, 136)
(242, 76, 89, 101, 115, 105, 131, 229)
(293, 99, 116, 109, 122, 113, 146, 305)
(304, 103, 132, 110, 125, 121, 130, 311)
(316, 104, 126, 112, 155, 116, 137, 319)
(266, 100, 124, 113, 142, 131, 172, 304)
(278, 98, 119, 114, 129, 120, 168, 286)
(240, 73, 91, 95, 134, 129, 167, 218)
(268, 68, 72, 83, 126, 135, 195, 302)
(256, 63, 72, 78, 95, 138, 190, 319)
(266, 64, 99, 83, 117, 137, 164, 338)
(244, 58, 101, 89, 143, 135, 159, 391)
(272, 61, 106, 74, 179, 137, 149, 391)
(283, 64, 105, 69, 189, 139, 135, 359)
(327, 76, 110, 76, 192, 171, 137, 441)
(325, 79, 117, 95, 194, 161, 127, 430)
(313, 85, 125, 94, 194, 162, 121, 364)
(284, 78, 118, 94, 156, 165, 122, 367)
(246, 73, 114, 95, 143, 161, 92, 345)
(180, 62, 121, 102, 144, 131, 111, 204)
(183, 52, 87, 75, 166, 136, 125, 212)
(218, 48, 70, 68, 151, 140, 175, 213)
(223, 48, 72, 70, 146, 117, 188, 206)
(216, 52, 73, 77, 150, 110, 186, 203)
(220, 54, 54, 62, 147, 113, 185, 240)
(223, 53, 47, 60, 108, 111, 182, 227)
(172, 49, 49, 61, 153, 97, 137, 212)
(186, 47, 51, 72, 161, 105, 117, 242)
(185, 44, 51, 76, 160, 107, 112, 239)
(197, 38, 51, 75, 158, 107, 96, 204)
(191, 39, 53, 73, 152, 106, 94, 196)
(196, 38, 54, 74, 108, 124, 109, 195)
(187, 39, 46, 61, 95, 126, 137, 144)
(191, 38, 43, 45, 109, 128, 147, 152)
(174, 40, 52, 60, 104, 122, 149, 145)
